,Old_WScore,Position_Weight,SCScore,Words
175,15858.3080872914,0.4612763602128231,7315.062633639353,method
46,18417.16585365854,0.30825319169038196,5677.150156281363,lower-bound-expans
16,21905.853658536584,0.2517022752785264,5513.75320777209,ramanujan-graph
21,20522.908857509632,0.21182760501422118,4347.318631211411,prove
339,6946.341463414635,0.5909090909090909,4104.656319290466,spectral
190,14088.951219512195,0.2563055572053612,3611.0764927562263,techniqu
24,19797.280719148654,0.1610621812725218,3188.593215890521,expand
3,27388.30623306233,0.09843517961468347,2695.972843393445,show
4,27309.40921409214,0.0964289771045235,2633.418395843754,bound
15,21929.07460545194,0.11454519772777659,2511.870186668657,explicit
33,19033.671491836867,0.09852175522272241,1875.2307237084615,improv
7,25671.11603843311,0.07020086796841751,1802.134627615968,eigenvalu
23,20152.631049167638,0.07944806984822828,1601.0876392198443,linear-size-subset
27,19563.198889549876,0.07658946844594121,1498.3350040528524,obtain
554,1426.943089430894,1.0,1426.943089430894,expans-regular-graph
6,25760.794273594907,0.04893185850403155,1260.5235403470122,result
81,16928.131929046565,0.06504758907291182,1101.134169492659,regular-ramanujan-graph
297,8398.14538498326,0.12844827586206897,1078.7272951400912,asymptot-optim-eigenvalu
30,19194.959613986382,0.05395252311811911,1035.616502324963,size
0,28724.22725512969,0.035220211541969006,1011.6733603052594,subset
9,22726.163375919477,0.04029989157289646,915.8619199174855,upper-bound
22,20223.95267367308,0.04467105505874626,903.4253033911288,expans
31,19161.705623306232,0.04185684825697499,802.0486046195533,posit
18,20862.183092074825,0.034740844623354875,724.7698613057527,graph
19,20828.4,0.033548449203727564,698.7605193949192,compar
10,22651.941540843978,0.027696743152933533,627.3850067720211,defin
2,27629.76866223208,0.02151939202091978,594.5758232898964,theorem
254,10250.018583042973,0.05660095917827877,580.1608833954141,approxim
14,21935.68524970964,0.02636728243812997,578.3844084530156,neighbor
43,18519.74620007069,0.030423006322502437,563.4263557358911,random-walk
1,28065.660753880267,0.019778952270184693,555.1093644821935,construct
8,23791.405764966737,0.022678580206473384,539.5553038655514,node
201,13593.207897793262,0.03657531892454704,497.17591406946013,roughli
378,6187.408536585365,0.07898255055453454,488.6973075424122,yield
196,13884.214866434375,0.03454709568545162,479.6592995080782,vector
39,18767.198606271773,0.025124411082017892,471.51481264184525,appli
37,18786.47405644788,0.02502139871594601,470.06385783315807,degre
277,9319.928307464892,0.049606277065424365,462.326945849995,construct-famili
17,21666.160278745643,0.02109194738620505,456.98151266038883,section
176,15850.897018970189,0.02879747184293026,456.4657605889812,fact
70,17381.60301407892,0.026236433413784527,456.031270103718,theoret-comput-scienc
32,19057.549796747968,0.023471487498944715,447.3090418148863,lemma
12,22120.047425474248,0.01956936025002078,432.8751768166502,proof
56,17969.16790385295,0.023763549800448706,427.0112163558341,construct-select-network
26,19720.359706523897,0.021324993517344935,420.5365429013324,constant
5,26803.057649667408,0.015130170202265966,405.5348241806147,applic
53,18085.752916224814,0.022028247061387906,398.397433529817,smaller
48,18325.821931390048,0.02141503972559919,392.44820466497475,comput
180,15262.879462707668,0.02525115416537617,385.4053223203851,extrovert-graph
45,18481.84630274874,0.0205884496555858,380.512562146417,delta
55,17987.22268490978,0.019982916732656144,359.4371731642958,complex
11,22639.133952768098,0.015737979843496046,356.2942338228713,equal
78,16990.330151997172,0.020466214855046017,347.72774734894074,theori
13,22102.606271777004,0.015273934839301418,337.5937679738568,small
60,17629.844008196178,0.019026501772474187,335.434258270388,parallel
71,17347.89609359508,0.019198328171815594,333.0506022953961,expand-graph
177,15487.440084835633,0.02098669766240475,325.0302226250536,rang
40,18723.346341463417,0.017014884029409084,318.5755666424609,vertic
260,10121.76829268293,0.030303030303030304,306.7202512934221,averag-degre-linear
183,14700.8199767712,0.020177352156860517,296.62362166592254,denot
245,10694.615853658537,0.026430291623661787,282.66181581523176,classic
380,6180.874661246611,0.045454545454545456,280.94884823848236,regular-graph-asymptot
38,18777.296167247387,0.014525114308277335,272.74237322964615,famili
214,12224.043831742663,0.022251917267023007,272.00841201240064,previous
381,6180.874661246611,0.043478260869565216,268.7336809237657,optim-eigenvalu
238,10916.664899257688,0.024390243902439025,266.26011949408996,byproduct
82,16916.16341463415,0.015656747843249358,264.85210505812694,case
182,15003.319241192412,0.017388851944549536,260.89049696190614,random-regular-graph
379,6180.874661246611,0.041666666666666664,257.5364442186088,linear-expans-equal
50,18252.82317073171,0.014106889993255187,257.4905685358516,greater
316,7555.121951219513,0.03224175883380667,243.59041991121842,induc-subgraph
405,5558.09515206263,0.043708267871170464,242.93471175980739,xerox-palo-alto
179,15306.87985546522,0.015794560576137037,241.76544110879715,expans-least
406,5558.09515206263,0.04307751072456955,239.42890352115597,research-center-coyot
212,12326.518204312475,0.018746579091406677,231.080048438808,cryptographi
86,16779.398727465534,0.013574323731478054,227.76899034616807,hand
178,15345.247386759585,0.01463260213110784,224.54089961387533,entri
25,19746.989283074647,0.011322497551945828,223.5852378159132,least
34,18994.836406900657,0.011716018607489827,222.5438567894733,number
189,14128.319918699188,0.015177101389754019,214.42694387297882,gamma
181,15016.600770218227,0.013731336548081046,206.19799898403951,high
72,17276.52462158768,0.011933607191294208,206.1712584647502,expans-ramanujan-graph
79,16944.9918699187,0.011954164763025275,202.5632247211319,requir
87,16714.106078203637,0.012083760234186017,201.9692503777639,impli
246,10676.798868858252,0.018867924528301886,201.44903526147644,introduct
65,17507.650406504064,0.011196536122153277,196.02504019045426,exist
247,10676.798868858252,0.01818181818181818,194.12361579742276,wide
169,16500.75853658537,0.011362247613373611,187.48570430117135,arbitrari
248,10676.798868858252,0.017543859649122806,187.3122608571623,area
42,18680.123886953155,0.008396701529049448,156.8514248044127,subgraph
83,16847.504065040648,0.009212498234982954,155.2076014630551,probabl
269,9636.38211382114,0.01605845818239076,154.74543920433507,matrix
47,18410.115539691986,0.008389360697103724,154.44909973783047,select-network
51,18225.42190495076,0.008472163120653376,154.40874732147202,eigenvalu-graph
173,16251.597154471543,0.009388814466584045,152.58323046899852,regular
41,18688.740828871705,0.00814593321996278,152.23723475718077,network
420,4930.901535682024,0.029959600129483267,147.72783828688839,appear
200,13603.533875338755,0.010756487740861215,146.32624536247158,function
192,14003.663671373557,0.010418947090528907,145.90343086560287,assum
387,5991.313459801265,0.024348270365106506,145.87811996134286,paper
204,13209.84901277584,0.010715424407584342,141.54913853200216,real
355,6556.5357295678195,0.021333333333333336,139.87276223078018,dimac
35,18981.094586555624,0.007327926980516242,139.09207514055174,valu
229,11553.359272164147,0.011971681518292593,138.31313767276188,note
193,14002.736585365854,0.009326803473077568,130.60077221698057,integ
330,7168.7377295995175,0.017012268209199155,121.9564889773524,project
185,14463.109756097561,0.00841905224373065,121.76567664339584,bipartit
222,11674.641114982578,0.010143651714617261,118.4234933635342,undirect
217,11998.052845528457,0.00933085386816918,111.95207780419744,discret
184,14698.342237708091,0.007543001421343397,110.86961639042383,conclud
215,12188.579268292686,0.008665210786102764,105.61660854287831,close
174,15902.876135820181,0.006500759879168123,103.38077914712002,element
230,11533.230637569532,0.008831489485018197,101.85560510398504,remark
29,19327.70243902439,0.005122881710212935,99.01353332531598,shown
58,17759.821270407825,0.0055173337185973,97.98686073148262,step
203,13470.947368421052,0.00711737659227045,95.8778054757072,main
202,13496.366592756838,0.007061454894024923,95.30398392797724,absolut
309,7890.680216802168,0.011672137180228108,92.10110193582696,adjac-matrix
232,11248.184852374841,0.008154698965042135,91.72556137426373,relationship
394,5846.8956639566395,0.015388257575757576,89.97353649554488,mathemat
372,6233.0534873769775,0.014285714285714285,89.04362124824253,author
231,11506.531781226902,0.0077120306706957385,88.73872601015714,distanc
370,6233.0534873769775,0.014084507042253521,87.78948573770391,massachusett
283,9200.866434378628,0.009432261286506663,86.78497627130812,famili-regular-graph
371,6233.0534873769775,0.013888888888888888,86.57018732468023,institut
36,18848.418798334325,0.004538527290912106,85.5440631067811,linear
209,12616.919982884036,0.006771860618014464,85.44002355273211,polynomi
373,6233.0534873769775,0.0136986301369863,85.38429434762982,technolog
208,12616.919982884036,0.006736323906163661,84.99165970285574,time
252,10387.3,0.008131332563806593,84.46259074002822,ratio
369,6233.0534873769775,0.013513513513513514,84.23045253212132,partli
318,7532.6067073170725,0.011133710106752468,83.86585942744752,coeffici
52,18116.762244695627,0.004607149309389997,83.46662866403223,random
261,9913.307317073173,0.008282298046077574,82.10496582236166,regular-graph-subset
66,17486.53023993655,0.004694763572320862,82.09512517674129,local
262,9897.713414634149,0.008201589378055164,81.17698120849754,diagon
54,18069.556348734222,0.0044840165115516755,81.02418902413766,determinist
172,16405.614634146346,0.004727762968410086,77.56185734132369,suffici
194,13924.51649928264,0.0055446446360971164,77.20649571799328,adjac
258,10170.283074648929,0.0074869544085083735,76.1444457015209,suffici-larg
220,11708.807588075879,0.006369426751592357,74.57839228073809,explicit-construct-expand
219,11708.807588075879,0.006289308176100629,73.64029929607472,difficult
331,7163.371273712735,0.0102770417359353,73.61826554994579,sequenc
321,7486.761358201817,0.009789642081134644,73.29271404366526,tanner
302,8238.626723223755,0.008799351719007387,72.49457421925915,definit
251,10404.39024390244,0.006759033975226109,70.32362715004766,calcul
235,11115.308943089429,0.0063197877778898865,70.24639360600672,averag-degre-induc
199,13764.146341463416,0.00507542889259008,69.85894602330147,fraction
300,8249.825654923217,0.00757763186869845,62.51414179395223,nonneg
259,10134.041811846691,0.0061435794078661,62.2592905937154,hold
272,9437.376693766935,0.0064516129032258064,60.88630125010926,size-ffn
61,17628.405644788156,0.003442340899957615,60.68298175209796,rout
522,1781.1490514905151,0.03385287302193495,60.29701267324829,contract
249,10658.551829268294,0.00555855131910234,59.246107330299935,induc
293,8496.575300038714,0.0069634831281052845,59.16575874849568,restrict
233,11228.375092387287,0.005254856744861649,59.00350258806788,prime-congruent-modulo
295,8411.609756097561,0.006875441488109254,57.833530698857736,expans-linear-size
255,10228.50325203252,0.0055746134177506726,57.01995147228688,linear-expans-famili
268,9648.425331621736,0.005847953216374269,56.4235399510043,reli
282,9201.008130081302,0.006117023082904902,56.28277911770299,side
28,19439.4512195122,0.0028871066618528186,56.12376911861657,group
267,9648.425331621736,0.005813953488372093,56.095496114079864,analyz
237,11054.529268292683,0.005019464277819458,55.487814770304794,real-number
103,16663.38211382114,0.0032486085469032484,54.13280555527407,proceed
163,16663.38211382114,0.0032431398589111925,54.04167871760118,annual-acm-symposium
325,7475.0,0.007194244604316547,53.77697841726619,jjxj
421,4927.235772357722,0.01081753855883772,53.30056295596422,oper
326,7473.943089430893,0.006993006993006993,52.26533628972653,regular-graph-node
482,2911.109542148053,0.01759259259259259,51.21396416741945,flieee
278,9297.945590994374,0.005485811297692271,51.006774968404976,compon
287,8917.138211382115,0.005627475435897318,50.1809762430542,explicitli-construct-infinit
73,17232.079317866348,0.0028470532062879832,49.06064667294023,superconcentr
350,6644.586426299045,0.007266828868894573,48.285072464494924,form
225,11636.373983739839,0.004032258064516129,46.92086283766064,recent
340,6889.365853658537,0.006802721088435374,46.8664343786295,good
227,11636.373983739839,0.004016064257028112,46.73242563750939,pippeng
323,7475.38753387534,0.00625,46.72117208672088,explicit-construct-infinit
279,9294.781771501925,0.005020992353976986,46.669028206595826,set-node-distanc
226,11636.373983739839,0.00398406374501992,46.36005571211091,weak
213,12299.994715447154,0.0037580937580937585,46.224533364708165,previou
324,7475.38753387534,0.006134969325153374,45.86127321395914,discov
322,7475.38753387534,0.006097560975609756,45.58163130411793,marguli
320,7499.400180668473,0.006077711984914535,45.579194357719004,contradict
396,5804.11653116531,0.007633587786259542,44.30623306233061,flamerican
296,8407.859078590785,0.005260567785127592,44.23011261072725,subgraph-induc
263,9889.965156794424,0.004464285714285714,44.151630164260816,block
333,7083.375919473479,0.006203625445730698,43.94261109572176,denot-adjac-matrix
395,5804.11653116531,0.007518796992481203,43.639973918536164,societi
257,10212.116918312042,0.004256437862266678,43.467241104997484,tight
120,16663.38211382114,0.002600421981744064,43.33182513898136,theori-comput
216,12043.312195121953,0.00348200779501017,41.93490694115568,densiti
244,10751.69837398374,0.003898407513482525,41.91450172383606,larg
256,10220.784313725491,0.0040822723021698955,41.72402471037412,idea
441,4130.7796320068455,0.009898949607764926,40.89037941801751,eigenvalu-linear-expans
265,9785.61549497848,0.004132231404958678,40.43642766520033,match
264,9785.61549497848,0.00411522633744856,40.270022613080165,logarithm
63,17573.84493357129,0.002278890859782213,40.04887459034556,path
44,18517.656157049376,0.002103409907659976,38.95022142737841,properti
242,10867.142276422765,0.0035368714405804246,38.43568515820382,fraction-walk-length
289,8783.30030487805,0.00424145727928728,37.25399301429119,jjgjj
68,17459.909974221697,0.002121109314162547,37.034377670761195,token
64,17563.361755568774,0.0021004221072951574,36.89047330981894,scheme
171,16419.590592334494,0.002240507666059303,36.78821859568065,combinatori
306,8130.0552845528455,0.004524886877828055,36.787580473089804,contain
80,16930.697204045216,0.0021682138675191273,36.70937246457815,explicit-construct-linear
303,8200.966318234608,0.004454723781593055,36.533039689883346,matrix-regard-matrix
305,8200.966318234608,0.004447968687411558,36.47764139002439,weight-graph-induc
304,8200.966318234608,0.00444123446354182,36.42241424688922,addit-loop-weight
346,6722.801393728221,0.005376344086021506,36.14409351466786,regular-graph-vertic
301,8242.323577235771,0.004364578389999913,35.97426736859002,largest-eigenvalu-subgraph
347,6722.801393728221,0.005319148936170213,35.75958188153309,infin
75,17076.173706127305,0.002090797978986697,35.70282947359674,sort
360,6445.626016260164,0.005508970093892202,35.508760959990774,inequ
76,17070.3395465662,0.0020472109149411596,34.94658544148205,algorithm
285,9094.355400696864,0.003783676505415259,34.4100988615131,similar
291,8688.390243902439,0.0039223984218431365,34.07932818104023,reduc
543,1721.6205962059619,0.019318287359524473,33.25876140158262,kahal
298,8306.89024390244,0.0040027996857882634,33.25081765817028,condit
294,8418.313008130079,0.0039424333672725175,33.1886380993963,calcul-show
271,9537.831300813008,0.003434433541480821,32.757047732497846,cover
424,4711.013078826441,0.006942506750999839,32.70624010380111,selfadjoint
540,1721.6205962059619,0.018950567623133997,32.62568752978135,annual
270,9618.024390243903,0.0033854723487776665,32.56155562303991,deriv
363,6386.966854283927,0.005076142131979695,32.42115154458846,achiev
537,1721.6205962059619,0.018771929824561405,32.31814101649788,symposium
141,16663.38211382114,0.0019372096964981119,32.28046540734751,david
364,6386.966854283927,0.005025125628140704,32.09531082554737,explicitli-construct-pair
542,1721.6205962059619,0.018596642272922945,32.01636235733859,foundat
317,7543.128919860627,0.00423728813559322,31.96241067737554,uniqu
243,10849.33536585366,0.002924406379853202,31.727865561069414,belong
535,1721.6205962059619,0.018424611223799865,31.720190159981378,comput-scienc
472,3482.7371273712733,0.008905514905502683,31.01556739975247,eigenvector
205,12813.82363977486,0.0024142020608555123,30.93515943858355,extrovert
234,11153.61419068736,0.0027465275592682896,30.633708760168712,girth
544,1721.6205962059619,0.01774915573706118,30.557312082191736,octob
62,17620.9418996629,0.0017109165554570905,30.14796121888077,tree
195,13887.932742054694,0.0021503479435215868,29.863887611643424,algebra
20,20704.801751094437,0.001421550995995005,29.43293155114742,explicit-construct-concentr
319,7519.170731707318,0.003913563553151654,29.42675252553441,notat
211,12329.929539295394,0.002379194151706917,29.33529625084996,theorem-show
221,11686.395212285452,0.002480896690321673,28.99273920395002,build
348,6706.003097173828,0.0043023338932771,28.851464413392165,simpli
241,10867.142276422765,0.002651017266530566,28.808981812641033,corollari
290,8719.992297817713,0.003278688524590164,28.59013868136955,diamet
59,17676.50274307621,0.0015904447315823413,28.11350066052636,stay
49,18320.9918699187,0.0015237224539550122,27.916106690922348,gener
341,6865.8439024390245,0.004038398197104966,27.727011637213884,constant-small-absolut
327,7320.0975609756115,0.003583355804932689,26.230514087795576,norm
407,5518.226207556191,0.004739336492890996,26.15273084149854,investig
329,7221.618273325591,0.0036041666666666665,26.027915860110983,scalar
328,7221.618273325591,0.0035964035964035964,25.971853930042084,product
359,6518.170731707318,0.003984206035834045,25.969735171865107,orthogon
67,17459.909974221697,0.0014765106485276585,25.77974299927261,distribut
386,5992.028455284553,0.004231518280162203,25.355377943788678,conclud-proof
433,4431.634146341463,0.005714285714285714,25.323623693379787,symmetr
449,3804.590785907859,0.006603808999716319,25.124790872216103,nonneg-entri
399,5691.186991869919,0.004388807864743694,24.977526229645708,extend
69,17427.338092405316,0.001415567130992054,24.66956698429473,theoret
284,9165.175992348155,0.0026873860703521216,24.630366294162116,partit
228,11592.958724202626,0.0021237081128188205,24.62006049416284,problem
434,4431.634146341463,0.0055248618784530384,24.48416655437272,order
151,16663.38211382114,0.0014427202136223765,24.04059820292332,simul
122,16663.38211382114,0.0014416789487887406,24.02324720911876,logspac
108,16663.38211382114,0.0014356866415790289,23.923395104339928,toler
74,17220.860598849893,0.0013890824869013862,23.921195867232505,packet
84,16796.946262145553,0.0014192171054916154,23.838513455260422,affin
85,16796.946262145553,0.0014182101805579567,23.82160019125974,transform
464,3575.5914634146343,0.006618379435904889,23.664621012660483,real-symmetr-matrix
310,7869.9847560975595,0.002985245044235402,23.4938329913484,graph-graph
77,17070.3395465662,0.0013715986207084186,23.41365417709457,multibutterfli
96,16663.38211382114,0.0013783604065735727,22.968146145297304,ital
518,1781.1490514905151,0.012658227848101266,22.546190525196394,partial
526,1781.1490514905151,0.0125,22.264363143631442,support
520,1781.1490514905151,0.012345679012345678,21.989494462845865,defens
365,6386.324796747967,0.003430642596356519,21.909197881891465,term
160,16663.38211382114,0.0013058389962294697,21.759694173300296,zuckerman
521,1781.1490514905151,0.012195121951219513,21.721329896225797,advanc
131,16663.38211382114,0.0013023945751218478,21.70229846822308,extractor
97,16663.38211382114,0.0012986903537898836,21.640573612734393,thirti
154,16663.38211382114,0.0012915790878457278,21.522075870993923,unit
519,1781.1490514905151,0.012048192771084338,21.45962712639175,research
343,6849.781771501926,0.003115264797507788,21.338884023370486,regular-graph-upper
342,6849.781771501926,0.0030959752321981426,21.20675471053228,factor
523,1781.1490514905151,0.011764705882352941,20.954694723417823,agenc
393,5921.945480631277,0.003424657534246575,20.280635207641357,essenti
525,1781.1490514905151,0.011363636363636364,20.240330130574037,forc
392,5921.945480631277,0.0034129692832764505,20.211418022632344,lower-bound-linear
273,9434.393728222994,0.0021141537362727924,19.945758749991242,graph-subset
236,11091.483739837397,0.0017869000038307817,19.8193723372045,optim
524,1781.1490514905151,0.011111111111111112,19.790545016561282,armi
517,1781.1490514905151,0.010869565217391304,19.360315777070817,daal
390,5980.159178433889,0.0032363219110207063,19.35372018055718,suppos
210,12539.908536585366,0.0015118021698874834,18.957860935800333,interest
250,10642.050031269544,0.0017572149177209955,18.70036907008003,solv
402,5647.796320068464,0.003257328990228013,18.3967306842621,provid
404,5647.796320068464,0.003246753246753247,18.337001039183328,effici
538,1721.6205962059619,0.010638297872340425,18.315112725595338,base
403,5647.796320068464,0.003236245954692557,18.277657993749077,test
539,1721.6205962059619,0.010416666666666666,17.933547877145436,nabil
462,3605.663797226208,0.0049504950495049506,17.849820778347564,connect
461,3605.663797226208,0.0049261083743842365,17.76189062673009,regular-graph-eigenvalu
344,6786.514227642277,0.0026063498931768398,17.688030632258553,replac
460,3605.663797226208,0.004901960784313725,17.67482253542259,sigmak
503,2131.8963414634145,0.008264462809917356,17.61897802862326,updat
504,2131.8963414634145,0.00819672131147541,17.47456017592963,version
335,7076.89701897019,0.0024664805245915235,17.455028671829783,size-log
313,7850.552845528455,0.0022036806309791487,17.300111248169298,vertex
253,10262.433604336042,0.001661170821893238,17.047655265139685,asymptot
505,2131.8963414634145,0.007936507936507936,16.919812233836623,seri
377,6191.684088269453,0.002702702702702703,16.73428131964717,background
382,6158.089430894309,0.0027145836675758063,16.716648992576882,degre-graph
429,4624.146883468834,0.0036101083032490976,16.693671059454275,lower-bound-factor
534,1721.6205962059619,0.009615384615384616,16.554044194288096,juan
311,7869.9847560975595,0.0020920502092050207,16.464403255434224,consist
502,2131.8963414634145,0.007692307692307693,16.39920262664165,volum
541,1721.6205962059619,0.009523809523809525,16.396386630532973,puerto
312,7869.9847560975595,0.0020833333333333333,16.395801575203247,negat
536,1721.6205962059619,0.009433962264150943,16.241703737792093,rico
531,1770.0924261874195,0.00909090909090909,16.09174932897654,regular-graph-nabil
338,6975.037398373985,0.002286680577210458,15.949682544178355,lead
440,4247.879132791328,0.0036900369003690036,15.674830748307482,largest-eigenvalu-upper
529,1770.0924261874195,0.008547008547008548,15.128995095618972,pittsburgh
439,4260.385598141696,0.003527479644707624,15.02842347605035,page
307,8081.359940872135,0.0018596327419856833,15.028361545817308,regular-graph-largest
530,1770.0924261874195,0.00847457627118644,15.000783272774742,pennsylvania
354,6581.184959349594,0.0022766144915517777,14.982821050037883,hgamma
410,5418.38536585366,0.0026682609217051475,14.45766593044637,formula
432,4468.715898825654,0.0032199757275285976,14.389156727439747,empti
332,7128.317073170731,0.0019980757084757366,14.242917186215298,sens
423,4830.936895083238,0.0028575268767709943,13.804532017684968,relat
425,4686.766550522648,0.0029048794380102526,13.614491783367479,claim
465,3561.3937282229967,0.0037862865731718193,13.48445725494906,theta
288,8820.222899728995,0.0015054626138729203,13.278515821567801,linear-expans-strictli
427,4633.991869918698,0.0027472527472527475,12.73074689538104,abstract
366,6375.170731707318,0.001996007984031936,12.724891680054526,subspac
367,6375.170731707318,0.00199203187250996,12.69954329025362,span
428,4633.991869918698,0.00273224043715847,12.661179972455459,detali
57,17898.341463414636,0.000683526999316473,12.233999633229416,select
376,6209.186991869919,0.001968503937007874,12.222809039114015,pythagorean
375,6209.186991869919,0.001941747572815534,12.056673770621202,subset-regular
159,16663.38211382114,0.0006983240223463687,11.636440023618114,diffus
132,16663.38211382114,0.0006978367062107466,11.628319688640012,eigen
334,7076.89701897019,0.001638029106207607,11.59216329870702,degre-linear
170,16430.188868042525,0.0007037297677691766,11.562412996511277,logn
150,16663.38211382114,0.0006849315068493151,11.413275420425437,line
91,16663.38211382114,0.0006830601092896175,11.382091607801325,nonblock
134,16663.38211382114,0.0006793478260869565,11.320232414280664,perfect
166,16663.38211382114,0.0006775067750677507,11.289554277656599,elchanan
119,16663.38211382114,0.0006770480704129993,11.281910706717088,mossel
88,16663.38211382114,0.0006765899864682003,11.274277478904695,sbastien
128,16663.38211382114,0.000676132521974307,11.266654573239444,roch
89,16663.38211382114,0.0006756756756756757,11.259041968798067,slow
100,16663.38211382114,0.0006752194463200541,11.251439644713802,emerg
155,16663.38211382114,0.0006747638326585695,11.243847580176206,cooper
158,16663.38211382114,0.0006734006734006734,11.221132736579891,lose
99,16663.38211382114,0.0006729475100942127,11.213581503244374,shift
153,16663.38211382114,0.0006720430107526882,11.198509485094853,machin
93,16663.38211382114,0.000671591672263264,11.190988659382901,learn
127,16663.38211382114,0.0006711409395973154,11.183477928739018,amnon
140,16663.38211382114,0.0006706908115358819,11.175977272851199,shma
142,16663.38211382114,0.0006702412868632708,11.16848667146189,christoph
164,16663.38211382114,0.0006697923643670462,11.161006104367809,uman
148,16663.38211382114,0.0006684491978609625,11.13862440763445,loss
149,16663.38211382114,0.0006680026720106881,11.131183776767628,condens
145,16663.38211382114,0.0006675567423230974,11.12375307998741,unbalanc
496,2471.869918699187,0.00449074617721227,11.10054038796438,combin
137,16663.38211382114,0.000664451827242525,11.072014693568864,juli
104,16663.38211382114,0.0006640106241699867,11.064662758181367,hersonisso
110,16663.38211382114,0.0006635700066357001,11.057320579841498,greec
136,16663.38211382114,0.000663129973474801,11.049988139138685,michael
165,16663.38211382114,0.0006626905235255136,11.04266541671381,capalbo
130,16663.38211382114,0.0006622516556291391,11.035352393259032,omer
162,16663.38211382114,0.0006618133686300463,11.02804904951763,reingold
156,16663.38211382114,0.0006613756613756613,11.02075536628382,salil
95,16663.38211382114,0.0006609385327164573,11.013471324402603,vadhan
121,16663.38211382114,0.0006600660066006601,10.998932088330784,wigderson
98,16663.38211382114,0.0006591957811470006,10.984431189071284,conductor
113,16663.38211382114,0.0006578947368421052,10.962751390671801,lossless
129,16663.38211382114,0.0006565988181221273,10.941157001852355,thiri
107,16663.38211382114,0.0006561679790026247,10.9339777649745,fourth
105,16663.38211382114,0.0006548788474132286,10.912496472705396,montreal
147,16663.38211382114,0.0006544502617801048,10.90535478653216,quebec
138,16663.38211382114,0.0006540222367560497,10.898222442002053,canada
109,16663.38211382114,0.00065359477124183,10.89109942079813,bruce
116,16663.38211382114,0.0006531678641410843,10.8839857046513,magg
125,16663.38211382114,0.0006527415143603133,10.87688127534017,berthold
94,16663.38211382114,0.0006523157208088715,10.869786114690893,vcking
144,16663.38211382114,0.000649772579597141,10.827408780910421,twenti
112,16663.38211382114,0.0006493506493506494,10.820377995987753,ninth
384,6154.30243902439,0.0017566977476928393,10.811249233254694,ration
168,16663.38211382114,0.0006480881399870382,10.799340320039624,paso
111,16663.38211382114,0.0006476683937823834,10.792345928640634,texa
115,16663.38211382114,0.000646830530401035,10.778384290958046,state
139,16663.38211382114,0.0006464124111182935,10.771417009580567,robert
135,16663.38211382114,0.0006459948320413437,10.764458729858617,burkhard
101,16663.38211382114,0.0006455777921239509,10.757509434358385,monien
118,16663.38211382114,0.0006451612903225806,10.750569105691056,load
117,16663.38211382114,0.0006447453255963894,10.743637726512661,balanc
92,16663.38211382114,0.0006414368184733803,10.688506808095662,fifteenth
167,16663.38211382114,0.0006397952655150352,10.661152983890684,architectur
152,16663.38211382114,0.0006393861892583121,10.654336389911215,june
146,16663.38211382114,0.0006385696040868455,10.640729319170587,diego
106,16663.38211382114,0.0006381620931716656,10.633938809075392,california
123,16663.38211382114,0.0006353240152477764,10.586646832160826,inapproxim
102,16663.38211382114,0.0006345177664974619,10.573212001155545,cliqu
124,16663.38211382114,0.0006341154090044388,10.566507364502941,chromat
143,16663.38211382114,0.0006325110689437065,10.539773633030448,eighth
157,16663.38211382114,0.0006313131313131314,10.519811940543649,seattl
126,16663.38211382114,0.000630119722747322,10.49992571759366,peleg
133,16663.38211382114,0.0006293266205160479,10.486709952058616,major
90,16663.38211382114,0.0006289308176100629,10.480114536994426,coalit
161,16663.38211382114,0.0006285355122564425,10.473527412835411,monopoli
114,16663.38211382114,0.0006277463904582549,10.460377974777865,review
186,14243.29268292683,0.0007288629737609329,10.381408661025386,preserv
187,14243.29268292683,0.0007283321194464676,10.373847547652463,amplif
188,14243.29268292683,0.000727802037845706,10.366297440266981,hard
391,5943.148148148147,0.0017372978749444034,10.325018648257542,similarli
400,5659.826558265582,0.0017953321364452424,10.161268506760472,start
191,14010.162601626018,0.000724112961622013,10.144940334269382,regular-graph-expand
437,4345.782608695652,0.0023264711191578902,10.11033772926907,left
401,5659.826558265582,0.0017825311942959,10.088817394412802,matrix-weight-graph
198,13782.210365853658,0.0007230657989877079,9.965444950002645,fast
197,13782.210365853658,0.0007215007215007215,9.943874722838137,fault
358,6547.159891598915,0.0015163080714952477,9.927511389001387,graph-construct
452,3756.7816492450643,0.002617801047120419,9.834506935196504,usual
412,5365.465221318879,0.0018290082209194384,9.813479998849564,walk
453,3756.7816492450643,0.002583979328165375,9.70744612208027,euclidean
454,3756.7816492450643,0.002544529262086514,9.559240837773702,risk
451,3756.7816492450643,0.0025380710659898475,9.534978805190518,confus
478,3074.037940379403,0.003004893443792545,9.237156453015608,equat
431,4480.789868667917,0.0020242914979757085,9.070424835360157,decompos
207,12660.552845528457,0.0007117437722419929,9.011069640945522,design
206,12660.552845528457,0.0007107320540156361,8.998260728875946,concentr
353,6608.577235772357,0.0013568521031207597,8.966861920993699,averag
362,6442.429459588713,0.001388888888888889,8.947818693873213,averag-degre-deriv
361,6442.429459588713,0.0013812154696132596,8.898383231476123,union
385,6002.636856368565,0.0014577259475218659,8.75019949907954,sinh
218,11767.154471544714,0.000741839762611276,8.729343079780946,interact
463,3601.055954088953,0.002398081534772182,8.635625789182141,characterist
224,11648.018292682927,0.0007401924500370096,8.621775198136882,telephon
223,11648.018292682927,0.0007385524372230429,8.602672298879563,represent
436,4348.228150406504,0.0019230769230769232,8.3619772123202,coincid
473,3366.5402439024388,0.002450995116031791,8.251373695729352,weight
527,1779.749051490515,0.004613763596500564,8.211341384673347,space
239,10898.384823848237,0.0007530120481927711,8.206615078198974,explicit-construct-regular
240,10898.384823848237,0.0007518796992481203,8.194274303645292,provabl
448,3824.078048780488,0.0020239764944358562,7.739844083619841,neighborhood
409,5476.79268292683,0.0013966480446927375,7.649151791797249,remain
408,5476.79268292683,0.001394700139470014,7.638483518726401,valid
274,9380.534709193249,0.0008045052292839903,7.546689227025944,call
547,1669.1637630662021,0.004489343477603668,7.493449452773649,coordin
275,9370.208255159476,0.0007961783439490446,7.460356891050538,averag-degre-node
276,9370.208255159476,0.0007955449482895784,7.454421841813426,linear-size-induc
292,8664.371951219511,0.0008361204013377926,7.2444581531935714,probabilist
314,7694.106799704362,0.0009380863039399625,7.217736209853998,kgamma
315,7694.106799704362,0.0009372071227741331,7.210971696067818,repeat
481,2986.123385939741,0.0024096385542168677,7.195478038409015,largest-eigenvalu-subset
397,5750.746489283075,0.0012468827930174563,7.170506844492612,largest-eigenvalu-matrix
281,9247.989547038324,0.000774593338497289,7.163431097628446,open
280,9247.989547038324,0.0007739938080495357,7.157886646314492,question
266,9753.01490514905,0.0007309941520467836,7.129396860489071,eigenfunct
299,8265.247154471544,0.0008517887563884157,7.040244594950209,gammaffl
426,4669.519163763066,0.0015015015015015015,7.011290035680279,bfflc
308,8031.015098722414,0.0008431703204047217,6.771513573964936,classifi
422,4851.751719824891,0.0013531799729364006,6.565293260926781,largest-eigenvalu-weight
470,3542.7804878048787,0.0018181818181818182,6.441419068736143,stronger
286,9020.923577235772,0.0007087172218284905,6.393283895985664,modular
488,2692.495934959349,0.0023498331287904145,6.326916147101,correspond
471,3507.001355013549,0.0017699115044247787,6.207082044271768,index
351,6642.944567627495,0.0009302325581395349,6.179483318723252,region
442,4118.6358885017435,0.0014970059880239522,6.16562258757746,simpl
446,3835.660569105691,0.001597444089456869,6.127253305280656,shortest
443,4118.6358885017435,0.001483679525222552,6.11073573961683,straightforward
349,6690.32804878049,0.0009049773755656109,6.054595519258362,paramet
444,4056.6829268292686,0.0014684287812041115,5.956949965975431,immedi
445,4056.6829268292686,0.001466275659824047,5.948215435233531,taylor
352,6640.357723577235,0.0008833922261484099,5.866040391852682,total
337,7002.795844625112,0.0008312551953449709,5.821110427784799,slightli
336,7076.89701897019,0.000819672131147541,5.800735261450976,easili
374,6217.583148558759,0.0009319664492078285,5.794578889616736,linear-expans-adjoin
479,3050.6058846302744,0.0018552875695732839,5.65975117742166,averag-degre-graph
480,3050.6058846302744,0.0018484288354898336,5.638827882865572,largest-eigenvalu-averag
497,2371.869376693767,0.002364066193853428,5.607256209677937,rest
383,6155.658536585366,0.0008976660682226212,5.5257257958576,walk-length-equal
418,5165.6110068793,0.001059322033898305,5.472045558134851,alter
345,6738.943089430894,0.0008077544426494346,5.443411219249511,half
368,6337.024390243902,0.0008583690987124463,5.4395059143724485,deduc
477,3335.609756097561,0.001589825119236884,5.303036178215518,distinguish
498,2328.932249322493,0.0021838459768717356,5.086029323089768,hypothesi
417,5178.760162601626,0.0009643201542912247,4.993982799037248,verifi
356,6547.159891598915,0.0007593014426727411,4.971267951100164,cayley
357,6547.159891598915,0.000757002271006813,4.956214906585099,unlik
415,5365.465221318879,0.0009157509157509158,4.913429689852453,insid
413,5365.465221318879,0.0009140767824497258,4.904447185849067,exponenti
411,5365.465221318879,0.0009132420091324201,4.899968238647378,decay
414,5365.465221318879,0.0009124087591240876,4.895497464707007,length
430,4541.869918699187,0.0010660980810234541,4.842078804583355,prime
388,5989.042457091236,0.0007704160246533128,4.614054281272139,exact
389,5989.042457091236,0.0007698229407236335,4.610502276436671,linear-expans-explicit
419,5082.273712737127,0.0008888888888888889,4.517576633544113,desir
398,5709.506775067752,0.0007849293563579278,4.481559478075159,work
469,3543.4622531939604,0.001182033096926714,4.188489660985769,translat
468,3543.4622531939604,0.0011695906432748538,4.144400296133287,explic
416,5279.87985546522,0.0007836990595611285,4.13783687732384,maximum
466,3543.4622531939604,0.0011655011655011655,4.129909386006947,sublinear
467,3543.4622531939604,0.0011641443538998836,4.125101575313108,size-expans
528,1779.749051490515,0.002288329519450801,4.072652291740309,invari
447,3824.078048780488,0.0009950248756218905,3.805052784856207,figur
458,3687.390243902439,0.0010224948875255625,3.770337672701881,outlin
548,1669.1637630662021,0.002257336343115124,3.76786402498014,column
457,3687.390243902439,0.0010214504596527069,3.7664864595530534,inform
459,3687.390243902439,0.0010204081632653062,3.7626431060228973,basic
455,3700.5598141695705,0.0010162601626016261,3.760731518465011,speak
456,3700.5598141695705,0.0010131712259371835,3.7493007235760594,take
450,3760.0353658536583,0.0009861932938856016,3.7081216625775726,gammag
483,2895.578048780488,0.0012690355329949238,3.6745914324625484,directli
494,2481.5505226480827,0.00141643059490085,3.514944083070939,place
495,2481.5505226480827,0.0014084507042253522,3.495141581194483,conjunct
513,1861.2195121951215,0.00186219739292365,3.4659581232683827,structur
485,2792.325609756098,0.0012239902080783353,3.4177792041078305,loop-weight-averag
484,2792.325609756098,0.0012106537530266344,3.3805394791236054,simplif
486,2792.325609756098,0.0012048192771084338,3.3642477225977085,cosh
532,1752.859756097561,0.0018975332068311196,3.3261095941130194,cauchi
533,1752.859756097561,0.001893939393939394,3.319810144124169,schwartz
438,4293.001355013549,0.0007547169811320754,3.240001022651735,conjectur
489,2485.853658536585,0.0013020833333333333,3.2367886178861784,set-node-largest
490,2485.853658536585,0.0012987012987012987,3.228381374722838,largest-eigenvalu-induc
493,2485.853658536585,0.00129366106080207,3.2158520809011453,remind
491,2485.853658536585,0.0012919896640826874,3.211697233251402,reader
492,2485.853658536585,0.001287001287001287,3.199296857833443,resp
510,1971.4684959349595,0.0016129032258064516,3.1797878966692896,node-distanc
514,1828.3739837398373,0.0016778523489932886,3.067741583456103,largest-eigenvalu-big
516,1828.3739837398373,0.001652892561983471,3.022105758247665,strictli
515,1828.3739837398373,0.0016474464579901153,3.012148243393472,decreas
556,1361.5121951219512,0.002188183807439825,2.979238938997705,largest-eigenvalu-largest
506,1981.9337979094073,0.0014367816091954023,2.8476060314790335,consequ
508,1981.9337979094073,0.001430615164520744,2.8353845463653897,associ
509,1981.9337979094073,0.0014285714285714286,2.831333997013439,symmetr-matrix-largest
507,1981.9337979094073,0.0014245014245014246,2.823267518389469,subaddit
487,2707.0499419279904,0.001037344398340249,2.808143093286297,cycl
511,1939.9593495934962,0.0014388489208633094,2.7913084166812894,largest-eigenvalu-ffl
474,3342.9268292682927,0.0007662835249042146,2.561629754228577,easi
476,3342.9268292682927,0.0007651109410864575,2.557709892324631,argument
475,3342.9268292682927,0.0007633587786259542,2.5518525414261775,regular-graph-gamma
500,2223.481707317073,0.0011061946902654867,2.4596036585365852,premultipli
499,2223.481707317073,0.0011013215859030838,2.448768400128935,success
501,2223.481707317073,0.0010976948408342481,2.4407043988112767,largest-eigenvalu-posit
558,1081.6940133037692,0.002207505518763797,2.3878455039818305,largest-eigenvalu-nonneg
553,1460.672086720867,0.0015600624024961,2.2787396048687474,monoton
512,1885.7073170731708,0.001034126163391934,1.950059273084975,regular-graph-fig
550,1589.1677753141169,0.001226993865030675,1.9498991108148673,loop
546,1696.7910922587487,0.001095290251916758,1.8584787428901957,quadrat
545,1696.7910922587487,0.0010905125408942203,1.8503719653857675,semi
549,1610.3186991869918,0.0010787486515641855,1.7371291253365606,rewrit
552,1501.8699186991867,0.00102880658436214,1.5451336612131552,shorthand
555,1376.5560975609756,0.001072961373390558,1.4769915209881712,fijjp
551,1567.9024390243899,0.000864304235090752,1.3551447182578997,list
562,778.4552845528456,0.0016863406408094434,1.3127407833943432,largest-eigenvalu-extend
557,1268.745644599303,0.0007189072609633358,0.9121104562180468,survey
561,972.1454381210476,0.0007336757153338225,0.7132394997219719,geometr
560,972.1454381210476,0.0007331378299120235,0.7127165968629381,aspect
559,972.1454381210476,0.0007326007326007326,0.7121944601619397,graph-eigenvalu
435,4348.228150406504,0.0,0.0,
