,Old_WScore,Position_Weight,SCScore,Words
16,21648.880494414705,0.5311218941829943,11498.194415134816,graph
361,6613.485772357723,1.0,6613.485772357723,expans-regular
5,26742.090056285186,0.2057005880293141,5500.863649710736,eigenvalu
201,14490.608739837397,0.3545722198825042,5137.967308332963,method
21,21231.31957473421,0.22063273299139452,4684.324062787301,ramanujan-graph
70,17655.024390243903,0.2628616473481827,4640.828795191856,lower-bound-expans
289,9621.305816135084,0.40476190476190477,3894.3380684356293,spectral
52,18655.795269770882,0.1776154773983722,3313.557983086649,prove
198,14667.237483953784,0.2058261457804837,3018.9009605692463,techniqu
0,31211.22701688556,0.08918677740903214,2783.6287566177425,show
23,20556.2293608302,0.13252899193684353,2724.2963552133715,expand
80,17313.541463414636,0.14186693145934767,2456.2190001088184,optim
183,15829.923902439026,0.15429941599530833,2442.548013396514,asymptot
1,29919.65672990063,0.0618420008796956,1850.2914378107052,construct
14,22903.3125203252,0.07728081610952801,1769.9866831823022,bound
29,20057.889135254987,0.0865148503649235,1735.30527717281,explicit
36,19707.282966488205,0.08564182124345017,1687.767605010073,improv
44,19107.64915572233,0.07379070938100844,1409.9669858041777,linear-size-subset
12,23124.702800361338,0.058444883382833795,1351.5205584298085,linear-expans
28,20148.556414832445,0.06573174815527486,1324.3998359521138,obtain
7,26367.189400782896,0.0448945555709046,1183.7432498020144,regular-graph
6,26606.97967479675,0.04432259557636506,1179.2903996345815,result
2,28933.5703564728,0.037956801663648496,1098.2257914418576,subset
20,21241.80712538833,0.049703798730631917,1055.7985060352046,expans
17,21523.445903689808,0.047976252917272956,1032.6142843266648,equal
10,23778.724202626647,0.040804216500841026,970.2722104777661,upper-bound
187,15601.869918699187,0.054992436020693494,857.9848333072474,regular-ramanujan-graph
25,20439.909918699184,0.03821113431032513,781.0321431943613,posit
8,25384.43480879253,0.028292265196691334,718.1831614784809,node
199,14515.342065642875,0.046094203454755386,669.073130389112,famili-regular-graph
11,23618.922764227646,0.026893964324971792,635.2064662154024,proof
4,28245.089430894302,0.022212385889483904,627.3908259220076,theorem
82,17219.496585365854,0.036394179642896464,626.6894520880471,averag-degre
26,20433.63444745558,0.029404421004068808,600.8391899362268,largest-eigenvalu
37,19704.558943089432,0.029319152052599363,577.7209597818456,compar
24,20458.74809967612,0.027272938880669576,557.9701864974816,constant
18,21312.251407129454,0.02577314441428441,549.2837333094835,defin
271,10378.937669376694,0.049610028645168606,514.8993950841973,approxim
49,18686.379924953097,0.026788445805465362,500.57907591994194,matrix
51,18664.64024390244,0.026546015115420925,495.4718220385278,random-walk
232,12371.09756097561,0.04004329004329005,495.3794477879844,comput-scienc
39,19642.94170136824,0.024920820047324436,489.5182153398828,degre
38,19703.92370231395,0.024519788411967655,483.1360400662924,neighbor
13,22970.38023764853,0.020776498633586035,477.24407362045633,vertic
53,18543.63176680548,0.025231387892153605,467.8815660375308,theoret
33,19896.042104567387,0.023431820489031658,466.20048703643863,size
343,7223.726829268294,0.06441138377641445,465.29024109598157,yield
30,19984.97811131957,0.022655550436189296,452.77067956713967,lemma
176,16451.549718574108,0.02686534485225371,441.9765565434909,fact
56,18361.560579020424,0.023789295573588155,436.80859180666135,expand-graph
215,13630.157955865274,0.031277358988167095,426.31534345101994,roughli
226,12772.589800443457,0.03231764988498837,412.7800852953051,vector
22,20744.685115697317,0.019625851029616472,407.1320997369777,section
3,28280.03888299753,0.014094620572469019,398.59641783052075,applic
174,16639.118198874297,0.023315938269528547,387.9566527843421,appli
19,21269.64915572233,0.01797575766356519,382.3380588123186,small
192,15153.956639566391,0.024658276882458648,373.6704586832007,denot
47,18747.073170731703,0.01968511256342472,369.03824560061315,smaller
57,18316.594024720736,0.019955268628081894,365.51255411482197,comput
179,16330.796070460703,0.021176278422983887,345.825484457047,construct-select-network
73,17633.505758807587,0.018525715970695952,326.6733192553008,theori
63,18088.81618084474,0.0180463701167608,326.4374717735758,complex
223,12976.694238246728,0.02512716357819437,326.0675188286379,subgraph
34,19885.072047061934,0.016345238694092,325.02624905844397,explicit-construct
27,20429.630532971998,0.015445669441072249,315.54932001552214,least
235,12191.076422764228,0.02573746312684366,313.7673799074274,linear-size-induc
77,17581.70919324578,0.017633219785164935,310.02214240335775,delta
64,18060.460043624837,0.01708892557163899,308.6338574750647,parallel
181,16199.312669376692,0.01888111888111888,305.86114830291655,rang
190,15277.02800361337,0.02001998406446579,305.8458571847373,subset-size
217,13407.40921409214,0.022627105968031327,303.37086904402247,extrovert-graph
68,17792.573170731706,0.0152727583839701,271.7416710656941,random-regular-graph
243,11593.300304878047,0.02295428664389133,266.1159383468834,classic
222,13070.944444444443,0.0200424997585241,261.9744008714597,previous
186,15631.284552845533,0.016440631996259687,256.9881969621521,entri
41,19341.26658108686,0.012658408977196578,244.82966252038207,high
54,18456.064687168608,0.013153464311965317,242.7611882019956,greater
208,14059.348292682927,0.016600603973472985,233.39367313195282,adjac-matrix
261,10894.265582655824,0.02127659574468085,231.79288473735795,byproduct
188,15599.41463414634,0.014614625345094681,227.97960048083598,case
189,15584.635994087212,0.014112413453949297,219.93682667785885,real
86,17129.685428392746,0.012614033584124884,216.07442727924075,hand
177,16449.24299909666,0.01285020991684607,211.37622551160266,absolut
233,12309.705284552845,0.016959511077158134,208.766583129926,cryptographi
207,14067.90368980613,0.014822769103499358,208.52528816426292,gamma
173,16640.121951219513,0.012506230865342567,208.10520674940585,infinit-famili
32,19920.90575127973,0.010293693051067792,205.05968910292458,exist
184,15667.750677506774,0.012960304650400128,203.0588219670008,expans-least
76,17587.1526207945,0.011021256798777055,193.83252539306108,expans-ramanujan-graph
83,17143.420262664167,0.011249723565375614,192.85873892003087,impli
185,15647.688346883468,0.011882829864837711,185.9388184040199,distanc
178,16378.36196535878,0.011162793922877104,182.8282794135885,requir
175,16598.93183239525,0.010953576319503897,181.81766664838403,conclud
264,10669.118563685635,0.01694915254237288,180.8325180285701,introduct
265,10669.118563685635,0.01639344262295082,174.90358301123993,wide
31,19925.58430828211,0.008696342060626703,173.27969690267713,number
180,16226.070894308941,0.010560071438083267,171.34846780330605,arbitrari
354,6760.625390869293,0.025014466944291918,169.11344036264057,work
193,15068.459349593497,0.01121744002093544,169.02953896196888,induc-subgraph
48,18688.77298311445,0.008990348251799606,168.0185775170227,famili
263,10669.118563685635,0.015625,166.70497755758805,area
385,5810.744215134459,0.0276706897304194,160.787300279815,appear
347,6996.828017510945,0.02252265810731391,157.58716527407398,paper
71,17640.389792231254,0.008462285428480154,149.2780134915086,probabl
375,6075.0368980612875,0.024502524502524506,148.85374044848717,research
194,14984.485237483956,0.009908881665956092,148.47949104349448,calcul
45,18907.37999867804,0.007798303977534043,147.44549664843856,select-network
42,19279.62799920683,0.007574166373411982,146.0271100834845,network
231,12371.811131957476,0.01115234082163486,137.97465432448595,note
191,15211.544390243902,0.008757939601096668,133.22178700915694,regular
40,19384.840769383307,0.0068220675155237515,132.2446925064103,valu
224,12906.80746489283,0.010001219544642361,129.0838150768221,function
196,14755.63317073171,0.008668735969550291,127.91268802061138,integ
227,12761.327235772356,0.009733706690524644,124.21501629481175,assum
220,13116.35888501742,0.009402817388298332,123.33072739520311,undirect
59,18265.81684182696,0.006645911919422597,121.39300986708781,eigenvalu-graph
238,11977.23317073171,0.010079704448995943,120.7269704776862,subgraph-induc
209,13763.765130984644,0.008679950316314385,119.46879750236707,bipartit
320,8227.137560975609,0.01426513063053154,117.3611920226697,nonneg
350,6909.170731707317,0.015620503655314135,107.92472666982358,project
228,12715.949741315595,0.008039386420976622,102.22843368015378,close
300,9051.652545999144,0.010736872763204586,97.18644168312966,symmetr
251,11174.943714821766,0.00865257146914559,96.69199915617465,discret
65,17938.84334721396,0.0051519881906039395,92.42070907794036,step
365,6466.517198248906,0.014239383804601196,92.07922026492058,mathemat
204,14447.229781771499,0.006256246511688278,90.38543092576694,polynomi
239,11972.744544287549,0.007523818610546976,90.08075822163543,relationship
203,14447.229781771499,0.006225921849201981,89.94732355877274,time
195,14862.091056910569,0.006031392656232709,89.63910685691222,element
240,11896.298780487808,0.007486338797814208,89.05972311075573,ratio
50,18670.973658536583,0.004746775335000346,88.62691724278262,shown
306,8910.0,0.009879553571369859,88.02682232090544,explicitli-construct
218,13225.2760356175,0.006608911265197496,87.40467577713898,main
267,10561.352067868504,0.008220458446750735,86.81915581541799,remark
301,9018.142037302729,0.009587629684477213,86.46260629567546,sequenc
319,8242.02081300813,0.010311084353288218,84.98417184448397,coeffici
382,5894.6081300813,0.014084507042253521,83.02264971945493,xerox
383,5894.6081300813,0.013888888888888888,81.86955736224027,palo
266,10571.944715447156,0.007647332028967212,80.8471714309097,diagon
384,5894.6081300813,0.0136986301369863,80.74805657645616,alto
245,11474.538956639562,0.006898013995990164,79.15153032043408,real-number
378,5894.6081300813,0.013333333333333334,78.59477506775067,center
55,18391.063123801967,0.004264858098925199,78.43527451139138,random
380,5894.6081300813,0.013157894736842105,77.56063329054342,coyot
75,17595.006543723975,0.004393997345152654,77.31241204106672,local
381,5894.6081300813,0.012987012987012988,76.55335233871818,hill
317,8344.525585844094,0.009081196581196582,75.77827722187479,tanner
379,5894.6081300813,0.01282051282051282,75.57189910360641,road
200,14497.621951219511,0.005173677122940431,75.0060150260634,adjac
46,18791.939321832244,0.003956537509091486,74.35101279540051,properti
308,8828.430216802168,0.008169339715378914,72.12244559457322,definit
182,15902.538706256626,0.004422094508301405,70.32252908098796,suffici
43,19244.45396258841,0.003593373010479276,69.15250147057614,linear
241,11835.460704607043,0.005780346820809248,68.41306765668811,difficult
205,14427.41056910569,0.004728111364067539,68.21440386585674,fraction
285,9711.523035230352,0.006943161299746108,67.42867089980423,suffici-larg
248,11449.420054200542,0.005874814031386733,67.263213585658,prime
244,11585.79945799458,0.005708721803225968,66.14010597365727,hold
250,11281.811131957473,0.005828026294041173,65.75069192145456,matrix-weight-graph
276,10058.4174796748,0.0065078039812295554,65.45820931909661,restrict
62,18175.585365853654,0.003409223271478552,61.96462860201329,determinist
259,11058.989730423618,0.005405405405405406,59.7783228671547,reli
258,11058.989730423618,0.005376344086021506,59.456934034535585,analyz
270,10394.867750677506,0.005649717514124294,58.72806638800851,discov
269,10394.867750677506,0.0056179775280898875,58.3981334307725,marguli
391,5734.273170731708,0.010145307028597299,58.175961902921316,oper
450,3549.859756097561,0.016312997347480106,57.90885278514589,flieee
284,9723.623983739837,0.005897575454873709,57.34580613892538,set-node
280,10039.829268292684,0.005682302327986687,57.04934522380839,side
69,17703.495340075355,0.0032149069473058436,56.91509016040489,rout
505,1812.3827392120081,0.031048586323865993,56.27192193030874,contract
296,9171.797651309846,0.005917159763313609,54.27099201958488,size-ffn
252,11129.043661547725,0.004875573808998653,54.260473795444554,congruent
253,11129.043661547725,0.0048635730033737,54.12691630567071,modulo
282,9915.10694183865,0.005281194362925913,52.36360688904587,loop-weight
322,8213.674796747968,0.006211180124223602,51.01661364439731,good
163,16731.934959349594,0.0030466435986871484,50.97624253755215,proceed
149,16731.934959349594,0.0030418327814269288,50.89574825605284,annual-acm-symposium
249,11442.082039911309,0.004441569799179975,50.820806028209674,deriv
465,2638.2800361336945,0.01917211328976035,50.58140374286822,dimac
236,12170.423702313949,0.0041526822933735845,50.53990301145332,induc
331,7617.0663956639555,0.006622516556291391,50.44414831565533,jjxj
292,9398.815548780489,0.005129046979123401,48.20696649781062,inequ
221,13099.420828494,0.0036288934559794038,47.536402521642174,larg
353,6878.109417344173,0.006773850374967775,46.591284055746215,form
206,14341.985288424312,0.003224511553012825,46.24589725566417,densiti
307,8892.888211382113,0.005110027685328508,45.442904962694115,compon
366,6423.3420888055025,0.007042253521126761,45.234803442292275,flamerican
225,12892.053658536586,0.003494270735650046,45.048325821454505,previou
326,7884.833914053425,0.005694700856899716,44.90177044687198,contradict
367,6423.3420888055025,0.006944444444444444,44.606542283371546,societi
15,22381.33638211382,0.0019854980828749,44.43810047886524,concentr
405,5143.626016260162,0.008322965075254474,42.81021969350363,eigenvector
274,10261.695702671312,0.004149377593360996,42.57965021855316,block
254,11098.608852755193,0.003802067630616291,42.19766146393193,idea
257,11061.442205726406,0.0037735849056603774,41.741291342363795,recent
255,11061.442205726406,0.0037593984962406013,41.584369194460166,pippeng
256,11061.442205726406,0.0037313432835820895,41.274038081068674,weak
230,12481.41167775314,0.0032762730623726454,40.892512860205976,fraction-walk-length
114,16731.934959349594,0.0024386599366490102,40.80349944798284,theori-comput
480,2268.9634146341464,0.017948717948717947,40.724984365228266,nabil
484,2268.9634146341464,0.01778827233372688,40.36093913477506,kahal
35,19817.328997289973,0.002020529318605702,40.04149425547932,group
483,2268.9634146341464,0.017475875693336373,39.65212258687438,annual
478,2268.9634146341464,0.017323775388291517,39.30701255937291,symposium
479,2268.9634146341464,0.017174311926605505,38.967885432982776,foundat
281,9919.443902439023,0.003926743613353605,38.95111299192179,tight
278,10046.885222381636,0.003861003861003861,38.791062634678134,match
294,9308.848030018762,0.004164489249099737,38.7665975425164,regard
277,10046.885222381636,0.0038461538461538464,38.64186623992937,logarithm
295,9308.848030018762,0.004146804416918807,38.60197212730774,addit
357,6695.770444763271,0.0056745492247774814,37.995478986619396,extend
481,2268.9634146341464,0.016447590158409166,37.318980328327044,octob
79,17409.353691585697,0.0021363921772822644,37.19320703824379,path
393,5676.905487804878,0.006488095475078182,36.83230480787333,selfadjoint
74,17622.965853658538,0.002077952117280208,36.61967920836657,combinatori
60,18199.373983739843,0.0019800752135492846,36.036129327316964,token
298,9090.114777618366,0.003958622590684023,35.98433371059073,jjgjj
314,8539.434146341464,0.004201680672268907,35.87997540479606,contain
342,7276.240650406505,0.0049261083743842365,35.84355000200249,infin
288,9635.5756097561,0.0037085698434346985,35.73420513047638,condit
279,10044.750923872876,0.0035184779121822515,35.34223425901898,similar
66,17924.79555819949,0.0019586352588065797,35.10813658718909,scheme
9,24132.80081300813,0.0014169086428431634,34.193974047963735,gener
78,17486.112433075552,0.0019492084621205946,34.08407832414301,sort
87,17037.383700178467,0.0019729256896684464,33.61349198682055,superconcentr
237,12129.420731707316,0.0027093139557549553,32.862408863638116,belong
85,17141.188908718355,0.0019127998147292619,32.78766296883575,algorithm
260,11042.536585365851,0.002939329368514518,32.45765208826187,strictli
275,10165.746951219511,0.0031909978245384363,32.4388764061497,cover
325,7925.559233449478,0.003952569169960474,31.326321080827974,uniqu
197,14719.997498436524,0.002114459345275282,31.12483627299788,interest
363,6550.276422764228,0.0047169811320754715,30.89753029605768,achiev
229,12481.41167775314,0.0024551295199177468,30.643482260297823,corollari
315,8399.139227642276,0.003647964389641844,30.639760806082922,reduc
332,7591.174057649667,0.00402867096966348,30.58234255171574,simpli
364,6550.276422764228,0.004651162790697674,30.46640196634525,pair
103,16731.934959349594,0.001817427523133222,30.4090791103969,david
219,13203.259620596204,0.0022996630066792704,30.363047717067268,build
309,8818.024390243903,0.003320263593829414,29.27816535242665,gammaffl
72,17638.091810430302,0.0015899414139838672,28.043532633052823,tree
287,9681.87037037037,0.0028653295128939827,27.741748912236016,factor
333,7586.462059620594,0.0036467185161007123,27.665691664513965,notat
234,12290.634146341465,0.0022388317663062465,27.516662154877526,extrovert
305,8919.268292682927,0.0030211480362537764,26.9464298872596,diamet
374,6101.868483978958,0.0043859649122807015,26.762581070083147,investig
402,5183.3016688061625,0.005128205128205128,26.581034199005963,order
268,10447.886178861789,0.0025430790205902523,26.56980015097827,girth
67,17919.109789146674,0.0014786934446551516,26.49687017926714,stay
334,7583.457501847745,0.0033474253864058962,25.385058158415383,norm
61,18199.373983739843,0.0013752585072382027,25.028843897547837,distribut
339,7417.878787878788,0.0033658084495580822,24.96715910204009,scalar
338,7417.878787878788,0.0033590159502568263,24.91677316555662,product
360,6631.212398373985,0.003541267031312933,23.482893843995356,weight
327,7816.781771501925,0.003003003003003003,23.473819133639413,provid
329,7816.781771501925,0.0029940119760479044,23.403538238029714,effici
328,7816.781771501925,0.0029850746268656717,23.33367692985649,test
302,9011.697047496791,0.0024995004121599676,22.524740484478993,partit
143,16731.934959349594,0.001340913581577482,22.436078833062943,simul
81,17293.587679291428,0.0012967448132309165,22.42537012527524,packet
112,16731.934959349594,0.0013400142701653537,22.421031613007013,logspac
144,16731.934959349594,0.0013357089170376846,22.34899472449782,linear-size-toler
88,16865.407495538373,0.0013225062060767106,22.304606080862172,affin
89,16865.407495538373,0.0013216318574383475,22.28985983478301,transform
476,2268.9634146341464,0.00980392156862745,22.2447393591583,base
84,17141.188908718355,0.0012808189384425324,21.954759381707554,multibutterfli
159,16731.934959349594,0.00128783054040786,21.547896840768352,ital
356,6724.3089430894315,0.003191117380841945,21.458059142443613,term
262,10700.94512195122,0.0019717195436330685,21.099262632296167,problem
507,1812.3827392120081,0.011494252873563218,20.831985508184,partial
512,1812.3827392120081,0.011363636363636364,20.595258400136455,support
132,16731.934959349594,0.0012242602007951511,20.484242053024744,zuckerman
93,16731.934959349594,0.0012212346507164552,20.433618745891746,extractor
155,16731.934959349594,0.0012179717175551015,20.37902356045927,thirti
510,1812.3827392120081,0.011235955056179775,20.363851002382113,defens
139,16731.934959349594,0.0012117594629934313,20.275080521182485,unit
475,2268.9634146341464,0.008928571428571428,20.258601916376307,juan
508,1812.3827392120081,0.011111111111111112,20.137585991244535,advanc
482,2268.9634146341464,0.008849557522123894,20.079322253399525,puerto
477,2268.9634146341464,0.008771929824561403,19.90318784766795,rico
429,4314.588235294118,0.0045871559633027525,19.79168915272531,connect
430,4314.588235294118,0.004524886877828055,19.523023689113657,sigmak
511,1812.3827392120081,0.010752688172043012,19.487986443139874,agenc
202,14478.861788617889,0.0013422885276432187,19.434810072193567,algebra
324,8016.495934959349,0.0024031746671696677,19.26503995036293,averag
372,6261.861788617885,0.0030281715872551886,18.961991951611637,suppos
506,1812.3827392120081,0.010416666666666666,18.87898686679175,forc
509,1812.3827392120081,0.01020408163265306,18.493701420530694,armi
473,2343.4597560975612,0.007874015748031496,18.452439024390245,pittsburgh
293,9398.436522826767,0.001962871962871963,18.447927545488522,graph-subset
474,2343.4597560975612,0.0078125,18.308279344512197,pennsylvania
387,5810.474501108647,0.0031446540880503146,18.27193239342342,essenti
386,5810.474501108647,0.003134796238244514,18.214653608491055,lower-bound-linear
504,1812.3827392120081,0.01,18.12382739212008,daal
412,4884.1432926829275,0.0037106900919755465,18.12354212394736,orthogon
318,8280.110569105691,0.0021407122531828344,17.725334152993245,lead
488,2254.449030644153,0.007633587786259542,17.20953458506987,updat
486,2254.449030644153,0.007575757575757576,17.079159323061766,version
311,8741.977235772358,0.001941747572815534,16.974713079169625,consist
312,8741.977235772358,0.0019342359767891683,16.90904687770282,negat
299,9064.501463414636,0.0018512653550721882,16.780797520220666,sens
273,10279.78265582656,0.001631519477913767,16.771665631701147,solv
351,6897.550135501354,0.0024269603640440546,16.740080787868482,replac
323,8166.7371273712715,0.0020379949360796556,16.643768909876364,vertex
487,2254.449030644153,0.007352941176470588,16.576831107677595,seri
413,4858.6853658536575,0.003355704697986577,16.30431330823375,lower-bound-factor
485,2254.449030644153,0.0070921985815602835,15.989000217334418,volum
377,5897.304878048782,0.002662060297499992,15.698981178106694,relat
373,6181.811846689895,0.0025252525252525255,15.610635976489634,background
426,4387.531781226903,0.0035391543254632988,15.528152081636886,theta
411,4908.589607635207,0.0030138746843577187,14.793873954353138,empti
399,5422.307692307692,0.0027045412154526405,14.664854636712048,claim
349,6934.012195121952,0.0021063770315058097,14.60564402398606,hgamma
427,4369.059233449477,0.0033012553358086434,14.423380106889107,page
392,5712.839430894309,0.002482878673354864,14.184287187268218,formula
321,8213.939024390244,0.0016280018976790537,13.372308319127352,ration
514,1035.8861788617883,0.0125,12.948577235772355,author
516,1035.8861788617883,0.012345679012345678,12.78871825755294,massachusett
456,3027.2551594746724,0.004186584751204032,12.673860288660395,combin
515,1035.8861788617883,0.012195121951219513,12.632758278802296,institut
518,1035.8861788617883,0.012048192771084338,12.480556371828776,technolog
517,1035.8861788617883,0.011904761904761904,12.331978319783193,partli
345,7176.3859078590785,0.0017006802721088435,12.204737938535848,stronger
418,4720.935540069686,0.002564102564102564,12.104962923255604,abstract
419,4720.935540069686,0.002551020408163265,12.043202908341035,detali
58,18277.302399365457,0.0006389776357827476,11.67878747563288,select
461,2756.415795586527,0.004214967799244948,11.618203819727357,coordin
90,16857.885598141693,0.0006561679790026247,11.061604723190086,logn
362,6564.7774390243885,0.0016806722689075631,11.0332393933183,start
145,16731.934959349594,0.0006514657980456026,10.9002833611398,diffus
95,16731.934959349594,0.0006510416666666666,10.893186822493224,eigen
146,16731.934959349594,0.0006402048655569782,10.71186617115851,line
167,16731.934959349594,0.0006385696040868455,10.684505082598719,nonblock
98,16731.934959349594,0.0006353240152477764,10.630200101238625,perfect
161,16731.934959349594,0.0006337135614702154,10.603254093377435,elchanan
115,16731.934959349594,0.0006333122229259025,10.596538922957311,mossel
156,16731.934959349594,0.0006329113924050633,10.589832252752908,sbastien
99,16731.934959349594,0.0006325110689437065,10.583134066634784,roch
122,16731.934959349594,0.0006321112515802782,10.576444348514283,slow
152,16731.934959349594,0.0006317119393556538,10.569763082343394,emerg
138,16731.934959349594,0.0006313131313131314,10.563090252114643,cooper
135,16731.934959349594,0.000630119722747322,10.543122217611591,lose
168,16731.934959349594,0.0006297229219143577,10.536482971882615,shift
140,16731.934959349594,0.0006289308176100629,10.523229534182134,machin
158,16731.934959349594,0.0006285355122564425,10.516615310716276,learn
130,16731.934959349594,0.000628140703517588,10.510009396576377,amnon
169,16731.934959349594,0.0006277463904582549,10.503411776113996,shma
102,16731.934959349594,0.0006273525721455458,10.496822433719945,christoph
150,16731.934959349594,0.0006269592476489029,10.490241353824198,uman
449,3749.7782113821145,0.002796591098818935,10.486596368496409,equat
134,16731.934959349594,0.0006257822277847309,10.47054753401101,loss
147,16731.934959349594,0.0006253908692933083,10.463999349186738,condens
141,16731.934959349594,0.000625,10.457459349593496,unbalanc
106,16731.934959349594,0.0006222775357809583,10.411907255351334,juli
164,16731.934959349594,0.0006218905472636816,10.405432188650245,hersonisso
92,16731.934959349594,0.0006215040397762585,10.39896517050938,greec
94,16731.934959349594,0.0006211180124223603,10.392506185931426,michael
129,16731.934959349594,0.0006207324643078833,10.386055219956296,capalbo
124,16731.934959349594,0.0006203473945409429,10.379612257661039,omer
154,16731.934959349594,0.0006199628022318661,10.373177284159699,reingold
137,16731.934959349594,0.0006195786864931846,10.366750284603217,salil
142,16731.934959349594,0.0006191950464396285,10.360331244179315,vadhan
113,16731.934959349594,0.0006184291898577613,10.347516981663324,wigderson
160,16731.934959349594,0.0006176652254478073,10.334734378844715,conductor
120,16731.934959349594,0.0006165228113440197,10.315619580363498,lossless
128,16731.934959349594,0.0006153846153846154,10.29657535959975,thiri
133,16731.934959349594,0.0006150061500615006,10.290242902429025,fourth
166,16731.934959349594,0.0006138735420503376,10.271292178851807,montreal
170,16731.934959349594,0.0006134969325153375,10.264990772607113,quebec
101,16731.934959349594,0.0006131207847946045,10.258697093408701,canada
125,16731.934959349594,0.0006127450980392157,10.252411127052447,bruce
417,4744.3123306233065,0.002159759536713591,10.24657380121157,left
107,16731.934959349594,0.000612369871402327,10.24613285936901,magg
126,16731.934959349594,0.0006119951040391676,10.239862276223741,berthold
153,16731.934959349594,0.0006116207951070336,10.23359936351657,vcking
104,16731.934959349594,0.0006093845216331506,10.196182181200241,twenti
121,16731.934959349594,0.0006090133982947625,10.189972569640434,ninth
165,16731.934959349594,0.0006079027355623101,10.171389033039267,paso
105,16731.934959349594,0.0006075334143377885,10.165209574331465,texa
117,16731.934959349594,0.0006067961165048543,10.15287315494514,state
96,16731.934959349594,0.0006064281382656155,10.146716166979742,robert
100,16731.934959349594,0.0006060606060606061,10.140566642030057,burkhard
172,16731.934959349594,0.0006056935190793458,10.134424566535186,monien
116,16731.934959349594,0.0006053268765133172,10.128289926967067,load
127,16731.934959349594,0.0006049606775559589,10.122162709830366,balanc
171,16731.934959349594,0.0006020469596628537,10.073410571553037,fifteenth
151,16731.934959349594,0.0006006006006006006,10.049210185795552,architectur
131,16731.934959349594,0.0006002400960384153,10.04317824690852,june
108,16731.934959349594,0.0005995203836930455,10.03113606675635,diego
97,16731.934959349594,0.0005991611743559018,10.02512579949047,california
111,16731.934959349594,0.0005966587112171838,9.983254749015272,inapproxim
162,16731.934959349594,0.0005959475566150178,9.971355756465789,cliqu
110,16731.934959349594,0.0005955926146515784,9.965416890619174,chromat
123,16731.934959349594,0.0005941770647653001,9.941732001990252,eighth
136,16731.934959349594,0.0005931198102016608,9.924042087395964,seattl
118,16731.934959349594,0.0005920663114268798,9.906415014416574,peleg
91,16731.934959349594,0.0005913660555884093,9.89469837927238,major
157,16731.934959349594,0.000591016548463357,9.888850448788176,coalit
148,16731.934959349594,0.0005906674542232723,9.883009426668396,monopoli
119,16731.934959349594,0.0005899705014749262,9.871348058613329,review
109,16731.934959349594,0.0005889281507656066,9.853907514340161,scienc
376,6053.804878048782,0.0016127663186486715,9.763372606988103,similarli
444,3982.6637102734658,0.0024509803921568627,9.761430662434964,usual
403,5166.89837398374,0.0018740991595960022,9.683279900400878,neighborhood
445,3982.6637102734658,0.002421307506053269,9.643253535771104,euclidean
394,5633.236675700089,0.001692778291175059,9.535820753676266,walk
442,3982.6637102734658,0.002380952380952381,9.482532643508252,risk
443,3982.6637102734658,0.0023752969121140144,9.460008813001107,confus
352,6882.719060523938,0.0013568521031207597,9.338831832461246,sinh
407,4946.504065040651,0.0018832391713747645,9.31545021664906,decompos
211,13693.536585365851,0.0006779661016949153,9.283753617197188,preserv
210,13693.536585365851,0.0006775067750677507,9.277463811223477,amplif
212,13693.536585365851,0.0006770480704129993,9.271182522251761,hard
213,13649.144308943089,0.0006724949562878278,9.178980705408936,fast
214,13649.144308943089,0.0006711409395973154,9.160499536203414,fault
440,4031.445121951219,0.0022522522522522522,9.079831355745988,characterist
216,13623.436314363145,0.0006626905235255136,9.028122143381806,design
439,4031.445121951219,0.002232142857142857,8.998761432926827,graph-induc
420,4689.240853658535,0.0018587360594795538,8.716061066279805,subspac
421,4689.240853658535,0.0018552875695732839,8.699890266527895,span
406,4986.333333333333,0.0017391304347826088,8.671884057971015,structur
494,1992.1626016260166,0.0043244506778868635,8.615008913062486,space
358,6675.5989159891615,0.0012853470437017994,8.580461331605605,union
446,3973.141537324464,0.002044989775051125,8.125033818659436,largest
242,11801.756097560974,0.000687757909215956,8.116751098735195,interact
425,4411.236280487805,0.001834862385321101,8.094011523830835,pythagorean
247,11454.256097560976,0.0006863417982155113,7.8615347272209855,telephon
246,11454.256097560976,0.0006849315068493151,7.845380888740395,represent
283,9739.136960600375,0.0007716049382716049,7.514766173302759,slightli
389,5759.436633189861,0.0013003901170351106,7.489514477490066,remain
390,5759.436633189861,0.0012987012987012987,7.479787835311508,valid
286,9708.091307066916,0.0007462686567164179,7.244844259005161,call
454,3235.934308943089,0.002182819770619745,7.063461385987717,correspond
272,10316.121951219511,0.0006784260515603799,6.998725882781215,linear-size-superconcentr
303,8978.470189701895,0.0007757951900698216,6.965453987356009,probabilist
290,9578.543554006968,0.0007178750897343862,6.8761978133574795,open
291,9578.543554006968,0.0007173601147776184,6.8712651033048555,question
431,4126.659756097561,0.001658374792703151,6.843548517574727,index
304,8974.245528455285,0.0007604562737642585,6.824521314414665,easili
313,8692.37630662021,0.0007818608287724785,6.796228543096333,classifi
415,4799.219512195124,0.001394700139470014,6.693472123005751,simpl
414,4799.219512195124,0.0013812154696132596,6.628756232313706,straightforward
422,4653.972764227642,0.0014005602240896359,6.518169137573729,bfflc
428,4316.487804878048,0.0014992503748125937,6.471495959337403,shortest
459,2891.7850609756097,0.0022123893805309734,6.3977545596805525,rest
341,7282.9012345679,0.0008695652173913044,6.332957595276436,kgamma
340,7282.9012345679,0.0008688097306689834,6.327455460093744,repeat
330,7658.174796747968,0.0008183306055646482,6.266918818942691,total
310,8800.212195121949,0.0006963788300835655,6.128281472926148,provabl
424,4447.756097560976,0.001366120218579235,6.076169532187126,immedi
423,4447.756097560976,0.001364256480218281,6.067880078527934,taylor
297,9147.304065040651,0.0006600660066006601,6.037824465373367,modular
344,7178.483739837398,0.0008382229673093043,6.017169941188096,paramet
316,8366.933333333332,0.0007137758743754461,5.972115155841065,exact
462,2756.415795586527,0.00211864406779661,5.839863973700269,column
346,7007.860975609756,0.0008319467554076539,5.830167201006453,walk-length-equal
448,3799.7317073170734,0.0014925373134328358,5.671241354204588,distinguish
460,2771.9596747967475,0.0020237030182552957,5.6096231603681455,hypothesi
371,6361.264679313459,0.0008628127696289905,5.488580396301518,adjoin
370,6361.264679313459,0.0008613264427217916,5.47912547744484,region
408,4931.575203252032,0.001092896174863388,5.389699675685281,translat
355,6752.5831978319775,0.000794912559618442,5.367713193825102,deduc
410,4931.575203252032,0.0010822510822510823,5.3372026009221125,explic
409,4931.575203252032,0.0010787486515641855,5.319930100595504,sublinear
400,5375.659552845528,0.0009784735812133072,5.25994085405629,alter
348,6943.8192620387745,0.0007485029940119761,5.197469507514053,half
336,7420.777235772359,0.0006807351940095302,5.051584231295002,geometr
337,7420.777235772359,0.0006802721088435374,5.048147779436978,aspect
335,7420.777235772359,0.0006793478260869565,5.041288882997526,eigenfunct
401,5375.587867417135,0.0008952551477170994,4.812522710310775,verifi
397,5633.236675700089,0.000847457627118644,4.773929386186516,insid
395,5633.236675700089,0.0008460236886632825,4.765851671489077,exponenti
398,5633.236675700089,0.0008453085376162299,4.761823056382155,decay
396,5633.236675700089,0.0008445945945945946,4.757801246368318,length
388,5767.6722293538705,0.0008230452674897119,4.74705533280154,desir
359,6647.054409005628,0.0006993006993006993,4.648289796507433,conjectur
468,2534.6991869918693,0.0017921146953405018,4.542471661275751,coincid
369,6413.433395872421,0.0007037297677691766,4.5133239942803804,cayley
368,6413.433395872421,0.0007017543859649122,4.500655014647313,unlik
495,1992.1626016260166,0.002145922746781116,4.275027042115916,invari
451,3400.192682926829,0.001182033096926714,4.019140287147552,directli
466,2604.646341463415,0.0015128593040847202,3.9404634515331542,node-distanc
457,2943.0876887340296,0.0013175230566534915,3.877585887660118,place
458,2943.0876887340296,0.001310615989515072,3.8572577833997768,conjunct
434,4081.4471544715448,0.0009407337723424271,3.839555178242281,speak
436,4051.0934959349593,0.000946073793755913,3.832633392559091,outlin
438,4051.0934959349593,0.000945179584120983,3.829010865723024,inform
435,4081.4471544715448,0.0009380863039399625,3.8287496758644886,take
437,4051.0934959349593,0.0009442870632672333,3.825395180297412,basic
404,5159.40502586844,0.0007272727272727272,3.7522945642679564,maximum
452,3284.032520325203,0.0011273957158962795,3.702404194278696,simplif
441,4010.746341463415,0.0009225092250922509,3.699950499504995,figur
472,2390.1721664275465,0.0015408320493066256,3.6828538773922137,decreas
453,3284.032520325203,0.0011210762331838565,3.6816508075394654,cosh
491,2060.7205284552842,0.0017699115044247787,3.6472929707173174,cauchi
492,2060.7205284552842,0.0017667844522968198,3.6408489902036822,schwartz
447,3949.19918699187,0.0009149130832570906,3.6131740045671275,gammag
469,2447.3170731707323,0.001336898395721925,3.271814268944829,consequ
471,2447.3170731707323,0.0013315579227696406,3.258744438309897,associ
470,2447.3170731707323,0.0013245033112582781,3.2414795671135526,subaddit
416,4764.310104529616,0.0006688963210702341,3.1868295013576025,survey
455,3189.621138211382,0.0009596928982725527,3.0610567545214797,cycl
432,4097.601000625391,0.0007097232079489,2.908162527058475,easi
433,4097.601000625391,0.0007087172218284905,2.9040403973248696,argument
501,1930.2967479674799,0.001466275659824047,2.8303471377822285,monoton
464,2668.0738211382113,0.0010256410256410256,2.7364859703981654,premultipli
463,2668.0738211382113,0.0010214504596527069,2.72530523098898,success
497,1991.138211382114,0.0012077294685990338,2.404756293939751,graph-largest-eigenvalu
498,1991.138211382114,0.0012033694344163659,2.3960748632757087,remind
499,1991.138211382114,0.001201923076923077,2.3931949656035023,reader
496,1991.138211382114,0.0011976047904191617,2.384596660337861,resp
502,1913.635624538064,0.001142857142857143,2.187012142329216,loop
490,2110.6006097560976,0.0010131712259371835,2.1383998072503525,quadrat
489,2110.6006097560976,0.0010090817356205853,2.1297685264945487,semi
493,2019.0835181079087,0.0009514747859181732,1.9211070581426344,shorthand
503,1899.2178861788614,0.000999000999000999,1.8973205656132481,rewrit
513,1569.2243902439027,0.0009940357852882703,1.5598651990496049,fijjp
500,1945.5702671312424,0.0008,1.556456213704994,list
467,2534.6991869918693,0.0,0.0,
